countryId x y
1 6010875.658 3625268.802
2 1744536.035 4399137.122
3 151061.196 2998290.224
4 135331.411 4545953.669
5 1678187.156 -1273898.688
6 -5867431.729 1950071.957
7 -384.914 -7834691.572
8 -5757942.902 1826550.696
9 -5610191.247 -3965726.828
10 3901398.087 4301233.263
11 -6561378.090 1338179.706
12 12268069.310 -2665291.494
13 1110368.447 5086645.606
14 4206144.644 4296152.914
15 -2492948.762 4119907.561
16 -7176117.493 2651501.912
17 4638851.557 2783902.047
18 8321804.175 2554953.226
19 -5582605.104 1411357.798
20 2223426.805 5706130.568
21 366021.792 5377067.712
22 -8267740.206 1838623.724
23 213125.850 992786.710
24 -5821470.516 3457246.166
25 8265894.339 2937520.224
26 -5932664.979 -1743580.989
27 1506961.108 4690986.930
28 2276617.107 -2386283.619
29 -4568453.614 -1346411.117
30 -6012388.581 1970111.307
31 10809645.250 481167.165
32 2174684.427 4564271.377
33 -146325.530 1313667.492
34 2823656.332 -362949.069
35 9842478.766 1343117.006
36 1184104.468 571239.971
37 -7529096.246 5966439.749
38 -2337177.851 1803092.944
39 -7548839.384 2067721.735
40 1975998.183 702214.473
41 1757636.145 1659521.465
42 -6333553.836 -3817361.720
43 8838388.206 3921393.628
44 -6878860.965 433904.262
45 4068829.276 -1248953.477
46 1518355.889 8247.652
47 -15593672.900 -1268705.227
48 -7886183.280 1071353.495
49 1306653.102 4777194.305
50 -7212288.817 2302999.341
51 2982242.147 3759470.777
52 1270123.426 5306256.405
53 742378.719 5965268.984
54 3999895.075 1242382.573
55 -5735561.179 1646103.174
56 -6522107.181 2002628.046
57 -7371908.394 -190911.466
58 2773361.611 2855711.597
59 -8332225.565 1475857.415
60 983548.480 178991.338
61 3620632.091 1626865.532
62 1962724.509 6210684.405
63 3717388.921 914323.057
64 -4796405.855 -5510443.216
65 16578924.190 -1899606.120
66 1871918.391 6811552.975
67 1876595.182 4445675.840
68 144549.149 4985391.675
69 -5015248.959 421427.201
70 -13923248.210 -1884945.164
71 1099470.447 -95543.094
72 -1336441.320 1435773.358
73 3704744.640 4563121.769
74 849914.882 5435554.832
75 -95087.587 851953.316
76 -474206.054 3864397.926
77 1750287.471 4243181.071
78 -2814825.141 7428784.902
79 -5788555.673 1295858.467
80 -5759012.716 1735162.194
81 13567759.300 1435805.806
82 -8429389.383 1687991.236
83 -1070671.265 1067653.177
84 -1358435.544 1263745.571
85 -5557127.062 527494.203
86 -6712215.759 2025801.691
87 -8071447.185 1543597.676
88 1629235.027 5031085.352
89 -1363183.182 6813227.455
90 7640357.067 2410610.909
91 10763706.180 18549.632
92 4831143.981 3470755.763
93 3914820.733 3550074.161
94 4148668.553 3114214.728
95 -657515.762 5676278.989
96 3151869.970 3355254.172
97 1079754.009 4541823.064
98 -515841.855 804710.621
99 -7192021.249 1940234.438
100 12293490.960 3911668.048
101 3352232.225 3345952.351
102 5520623.371 5148471.983
103 3580573.666 -2843.158
104 -14858237.670 198598.452
105 11080449.250 4317992.103
106 11327937.430 3905994.575
107 4314921.089 3132043.238
108 6506642.180 4421084.265
109 9744580.322 1943002.746
110 1905276.683 6043554.612
111 3203760.399 3623153.589
112 2561713.515 -3167969.787
113 -888533.951 686161.273
114 1582236.174 2816478.308
115 797327.103 5030361.651
116 1866110.462 5880638.968
117 503151.454 5306010.241
118 4362463.726 -2013725.877
119 3215686.074 -1419195.932
120 10801988.320 417880.396
121 6951293.168 201944.798
122 -372749.237 1880556.551
123 1281670.275 3838277.585
124 16313850.260 324830.594
125 -5708985.466 1565884.559
126 -1012037.983 2245996.548
127 5337929.076 -2169076.901
128 -9278239.960 2527712.242
129 14910017.080 735330.054
130 2401802.795 5015513.044
131 634862.590 4670746.421
132 8690486.865 4991461.702
133 -639971.470 3399372.439
134 3224784.872 -1927033.547
135 8947814.044 2069570.454
136 1597503.871 -2384438.429
137 15768902.740 -55759.170
138 7677002.078 3038950.085
139 428160.933 5542531.271
140 15329994.820 -2268624.940
141 15385539.840 -4167512.809
142 -8006747.073 1380486.343
143 755926.870 1882349.076
144 816971.877 967831.761
145 -15786195.310 -2035967.943
146 13628611.800 1623761.995
147 784350.559 6754757.663
148 5256720.985 2243178.904
149 6152797.105 3212776.193
150 12675390.010 806823.143
151 -7657608.517 896499.619
152 -7505056.845 976718.570
153 13754853.490 -707012.345
154 -5393190.337 -2503861.532
155 -7055363.674 -983291.976
156 11282006.450 1672025.600
157 1549841.307 5522404.667
158 -684350.919 4229365.855
159 -6177297.914 1951823.935
160 4703233.316 2708660.002
161 5148582.401 -2252712.581
162 2102234.809 4904074.816
163 7577847.876 6184904.408
164 2822489.515 -201614.485
165 -5711170.263 1485219.907
166 1064383.970 4697319.639
167 625138.990 22842.228
168 4160337.573 2558924.041
169 -1348561.611 1548081.348
170 5234313.753 -501528.384
171 -1109369.004 905429.606
172 9805488.398 144231.837
173 1629357.334 5187745.620
174 1255820.208 4924923.516
175 15073713.310 -1026109.831
176 4350437.138 548907.754
177 2156002.636 -3045855.304
178 -259748.904 4263360.038
179 7609758.036 843953.449
180 -5833077.565 1832878.817
181 -5735595.531 1417732.012
182 2831352.440 1423321.354
183 -5285892.157 413405.004
184 2888450.861 -2835514.792
185 1297039.226 6547619.388
186 688153.295 4992392.737
187 3475067.818 3716746.575
188 11162236.200 2522376.939
189 6225206.963 4194814.532
190 3292870.133 -677596.582
191 9484130.838 1691776.858
192 93390.829 931902.167
193 -16191870.550 -2286432.378
194 -5770198.969 1113093.160
195 852125.086 3607964.449
196 3121770.337 4165181.275
197 5164691.828 4174415.061
198 -6679241.430 2333334.651
199 16606580.130 -1337802.050
200 -6027677.162 1899236.899
201 3050307.885 151361.027
202 2592315.641 5168282.919
203 5066812.975 2587410.062
204 -171162.310 5764558.295
205 -8242490.656 3962828.520
206 -5019014.431 -3477145.615
207 5481308.484 4443035.376
208 15602016.730 -1620628.667
209 1086679.302 4455368.877
210 -6276778.938 691496.869
211 10067048.850 1708574.797
212 -1183918.525 2590046.861
213 -16107517.060 -1472421.159
214 4472926.115 1694272.470
215 1765098.250 4698397.097
216 2052424.012 -435146.996
217 2468326.802 -1566365.546
218 2706733.936 -2035105.220
